"displacement,mm","force,kN","force,N"
0.0,0.00322984,3.22984
0.0310005,1.1136400000000002,1113.64
0.0620038,2.24424,2244.24
0.0929936,3.4293400000000003,3429.34
0.124006,4.399850000000001,4399.85
0.155041,5.63424,5634.24
0.186012,6.44721,6447.21
0.216989,6.820189999999999,6820.19
0.247965,7.20411,7204.11
0.278892,7.4995400000000005,7499.54
0.309817,7.75566,7755.66
0.340742,8.01793,8017.93
0.371667,8.217600000000001,8217.6
0.402592,8.41735,8417.35
0.433517,8.600340000000001,8600.34
0.464442,8.76859,8768.59
0.495367,8.928180000000001,8928.18
0.526292,9.07855,9078.55
0.557217,9.197780000000002,9197.78
0.588142,9.329049999999999,9329.05
0.619184,9.43232,9432.32
0.650357,9.54753,9547.53
0.681529,9.633750000000001,9633.75
0.712706,9.71918,9719.18
0.743879,9.802620000000001,9802.62
0.775056,9.872639999999999,9872.64
0.806228,9.931030000000002,9931.03
0.837401,9.981370000000002,9981.37
0.868578,10.025500000000001,10025.5
0.89975,10.062100000000001,10062.1
0.930923,10.09,10090.0
0.9621,10.1105,10110.5
0.993273,10.1201,10120.1
1.0243,10.1194,10119.4
1.05527,10.110299999999999,10110.3
1.08623,10.0929,10092.9
1.1172,10.0686,10068.6
1.14817,10.0388,10038.8
1.17914,10.005,10005.0
1.21011,9.967780000000001,9967.78
1.24107,9.92755,9927.55
1.27204,9.88498,9884.98
1.30301,9.84017,9840.17
1.33398,9.79301,9793.01
1.36494,9.74376,9743.76
1.39591,9.69142,9691.42
1.42688,9.63517,9635.17
1.45785,9.576139999999999,9576.14
1.48882,9.51243,9512.43
1.51978,9.44538,9445.38
1.55075,9.37378,9373.78
1.58172,9.29867,9298.67
1.61268,9.21889,9218.89
1.64366,9.136090000000001,9136.09
1.67462,9.04826,9048.26
1.70555,8.95739,8957.39
1.73659,8.86068,8860.68
1.76751,8.76056,8760.56
1.79864,8.655149999999999,8655.15
1.82947,8.54669,8546.69
1.86061,8.43327,8433.27
1.89142,8.31697,8316.97
1.92265,8.196,8196.0
1.95338,8.072890000000001,8072.89
1.98463,7.94526,7945.26
2.01547,7.8158199999999995,7815.82
2.04664,7.6833,7683.3
2.0776,7.55003,7550.03
2.10862,7.41461,7414.61
2.13952,7.280390000000001,7280.39
2.17068,7.14414,7144.14
2.20136,7.01034,7010.34
2.23277,6.87428,6874.28
2.2634,6.74174,6741.74
2.29479,6.60844,6608.44
2.32555,6.47898,6478.98
2.35664,6.35296,6352.96
2.38768,6.22993,6229.93
2.4184,6.11301,6113.01
2.44836,6.00283,6002.83
2.47928,5.89286,5892.86
2.51152,5.78421,5784.21
2.54281,5.68162,5681.62
2.57409,5.58492,5584.92
2.60405,5.494,5494.0
2.63391,5.40866,5408.66
2.66516,5.32259,5322.59
2.69717,5.23662,5236.62
2.72917,5.15625,5156.25
2.76029,5.08078,5080.78
2.79124,5.01788,5017.88
2.82227,4.9603,4960.3
2.85409,4.918810000000001,4918.81
2.88609,4.90634,4906.34
2.91809,4.89087,4890.87
2.94863,4.87438,4874.38
2.97849,4.856350000000001,4856.35
3.00836,4.83858,4838.58
3.03823,4.81591,4815.91
3.06809,4.80274,4802.74
3.09763,4.7767100000000005,4776.71
